n     x(n)
-10   0.000000
-9    0.000000
-8    0.000000
-7    0.000000
-6    0.000000
-5    0.000000
-4    0.000000
-3    0.000000
-2    0.000000
-1    0.000000
0     6.250000
1     12.500000
2     18.750000
3     25.000000
4     31.250000
5     37.500000
6     43.750000
7     50.000000
8     56.250000
9     62.500000
10    68.750000
